Position, Velocity, Delta Time, 
0.000312, 0.012481, 50, 
0.001323, 0.020227, 50, 
0.003672, 0.046972, 50, 
0.007847, 0.083509, 50, 
0.014372, 0.130492, 50, 
0.023768, 0.187927, 50, 
0.036560, 0.255825, 50, 
0.053270, 0.334201, 50, 
0.074423, 0.423073, 50, 
0.100547, 0.522466, 50, 
0.132167, 0.632412, 50, 
0.169815, 0.752947, 50, 
0.214021, 0.884119, 50, 
0.265320, 1.025981, 50, 
0.324249, 1.178596, 50, 
0.391351, 1.342037, 50, 
0.467171, 1.516390, 50, 
0.552258, 1.701750, 50, 
0.647170, 1.898225, 50, 
0.752467, 2.105940, 50, 
0.868718, 2.325029, 50, 
0.996500, 2.555647, 50, 
1.136398, 2.797961, 50, 
1.288741, 3.046855, 50, 
1.453600, 3.297176, 50, 
1.631052, 3.549045, 50, 
1.821182, 3.802590, 50, 
2.024079, 4.057936, 50, 
2.239839, 4.315211, 50, 
2.468566, 4.574544, 50, 
2.710370, 4.836065, 50, 
2.965365, 5.099903, 50, 
3.233674, 5.366190, 50, 
3.515427, 5.635055, 50, 
3.810758, 5.906629, 50, 
4.119810, 6.181041, 50, 
4.442731, 6.458419, 50, 
4.779676, 6.738890, 50, 
5.130805, 7.022580, 50, 
5.496286, 7.309613, 50, 
5.876291, 7.600110, 50, 
6.271001, 7.894191, 50, 
6.680599, 8.191974, 50, 
7.105278, 8.493574, 50, 
7.545233, 8.799105, 50, 
8.000667, 9.108677, 50, 
8.471787, 9.422401, 50, 
8.958806, 9.740385, 50, 
9.461943, 10.062735, 50, 
9.981421, 10.389559, 50, 
10.517469, 10.720963, 50, 
11.070322, 11.057054, 50, 
11.640219, 11.397941, 50, 
12.227406, 11.743734, 50, 
12.832133, 12.094546, 50, 
13.454658, 12.450492, 50, 
14.095242, 12.811694, 50, 
14.754156, 13.178274, 50, 
15.431674, 13.550362, 50, 
16.128079, 13.928092, 50, 
16.843659, 14.311601, 50, 
17.578710, 14.701033, 50, 
18.333537, 15.096533, 50, 
19.108450, 15.498251, 50, 
19.903766, 15.906333, 50, 
20.719813, 16.320926, 50, 
21.556921, 16.742168, 50, 
22.415430, 17.170188, 50, 
23.295685, 17.605096, 50, 
24.198034, 18.046978, 50, 
25.122828, 18.495886, 50, 
26.070420, 18.951828, 50, 
27.041158, 19.414754, 50, 
28.035385, 19.884541, 50, 
29.053433, 20.360976, 50, 
30.095620, 20.843740, 50, 
31.162240, 21.332382, 50, 
32.253555, 21.826303, 50, 
33.369791, 22.324727, 50, 
53.002810, 392.660386, 50, 
54.189115, 23.726092, 50, 
55.406699, 24.351679, 50, 
56.657685, 25.019729, 50, 
57.944506, 25.736408, 50, 
59.269934, 26.508574, 50, 
60.637116, 27.343641, 50, 
62.049579, 28.249255, 50, 
63.511212, 29.232662, 50, 
65.026193, 30.299613, 50, 
66.598822, 31.452571, 50, 
68.233223, 32.688031, 50, 
69.932865, 33.992837, 50, 
71.699853, 35.339754, 50, 
73.534016, 36.683269, 50, 
75.431900, 37.957670, 50, 
77.385917, 39.080341, 50, 
79.384058, 39.962821, 50, 
81.410519, 40.529217, 50, 
83.447344, 40.736515, 50, 
85.476732, 40.587750, 50, 
87.483283, 40.131025, 50, 
89.455529, 39.444916, 50, 
91.386422, 38.617855, 50, 
93.272941, 37.730381, 50, 
95.115194, 36.845073, 50, 
96.915398, 36.004072, 50, 
98.676971, 35.231465, 50, 
100.403852, 34.537620, 50, 
102.100031, 33.923580, 50, 
103.769262, 33.384619, 50, 
105.414901, 32.912784, 50, 
107.039828, 32.498541, 50, 
108.646416, 32.131750, 50, 
110.236524, 31.802165, 50, 
111.811506, 31.499627, 50, 
113.372208, 31.214053, 50, 
114.918973, 30.935289, 50, 
116.451616, 30.652870, 50, 
117.969401, 30.355694, 50, 
119.487369, 30.359360, 50, 
121.162618, 33.504976, 50, 
122.853008, 33.807798, 50, 
124.558474, 34.109320, 50, 
126.278947, 34.409476, 50, 
128.014357, 34.708199, 50, 
129.764629, 35.005425, 50, 
131.529683, 35.301093, 50, 
133.309441, 35.595146, 50, 
135.103817, 35.887529, 50, 
136.912727, 36.178193, 50, 
138.736081, 36.467094, 50, 
140.573791, 36.754191, 50, 
142.425763, 37.039450, 50, 
144.291905, 37.322840, 50, 
146.172122, 37.604339, 50, 
148.066319, 37.883928, 50, 
149.974398, 38.161595, 50, 
151.896265, 38.437335, 50, 
153.831822, 38.711146, 50, 
155.780974, 38.983035, 50, 
157.743625, 39.253012, 50, 
159.719680, 39.521095, 50, 
161.709045, 39.787304, 50, 
163.711628, 40.051666, 50, 
165.727011, 40.307651, 50, 
167.754449, 40.548767, 50, 
169.793204, 40.775107, 50, 
171.842543, 40.986774, 50, 
173.901737, 41.183875, 50, 
175.970063, 41.366520, 50, 
178.046804, 41.534824, 50, 
180.131249, 41.688905, 50, 
182.222693, 41.828880, 50, 
184.320437, 41.954869, 50, 
186.423786, 42.066991, 50, 
188.532054, 42.165364, 50, 
190.644560, 42.250104, 50, 
192.760626, 42.321327, 50, 
194.879583, 42.379144, 50, 
197.000766, 42.423663, 50, 
199.123516, 42.454990, 50, 
201.247177, 42.473226, 50, 
203.371101, 42.478468, 50, 
205.494641, 42.470809, 50, 
207.617158, 42.450338, 50, 
209.738015, 42.417140, 50, 
211.856569, 42.371075, 50, 
213.972180, 42.312220, 50, 
216.084223, 42.240867, 50, 
218.192077, 42.157083, 50, 
220.295124, 42.060933, 50, 
222.392748, 41.952476, 50, 
224.484336, 41.831769, 50, 
226.569279, 41.698866, 50, 
228.646970, 41.553818, 50, 
230.716804, 41.396672, 50, 
232.778177, 41.227473, 50, 
234.830491, 41.046266, 50, 
236.873145, 40.853091, 50, 
238.905545, 40.647987, 50, 
240.927094, 40.430994, 50, 
242.937202, 40.202147, 50, 
244.935276, 39.961482, 50, 
246.920728, 39.709035, 50, 
248.892970, 39.444840, 50, 
250.851416, 39.168930, 50, 
252.795483, 38.881339, 50, 
254.724588, 38.582100, 50, 
256.638150, 38.271248, 50, 
258.535602, 37.949029, 50, 
260.416686, 37.621693, 50, 
262.281449, 37.295246, 50, 
264.129932, 36.969667, 50, 
265.962179, 36.644941, 50, 
267.778232, 36.321052, 50, 
269.578131, 35.997983, 50, 
271.361917, 35.675723, 50, 
273.129630, 35.354257, 50, 
274.881309, 35.033576, 50, 
276.616992, 34.713670, 50, 
278.336719, 34.394528, 50, 
280.040526, 34.076144, 50, 
281.728451, 33.758510, 50, 
283.400532, 33.441621, 50, 
285.056806, 33.125473, 50, 
286.697309, 32.810060, 50, 
288.322078, 32.495380, 50, 
289.931150, 32.181432, 50, 
291.524560, 31.868213, 50, 
293.102346, 31.555722, 50, 
294.664544, 31.243960, 50, 
296.211191, 30.932928, 50, 
297.742322, 30.622626, 50, 
299.257975, 30.313055, 50, 
300.758186, 30.004219, 50, 
302.242992, 29.696118, 50, 
303.712429, 29.388757, 50, 
305.166536, 29.082137, 50, 
306.605349, 28.776261, 50, 
308.028906, 28.471133, 50, 
309.437244, 28.166756, 50, 
310.830401, 27.863133, 50, 
312.208414, 27.560267, 50, 
313.571322, 27.258161, 50, 
314.919163, 26.956817, 50, 
316.251975, 26.656238, 50, 
317.569796, 26.356426, 50, 
318.872665, 26.057382, 50, 
320.160620, 25.759108, 50, 
321.433701, 25.461605, 50, 
322.691944, 25.164873, 50, 
323.935390, 24.868911, 50, 
325.164076, 24.573719, 50, 
326.378041, 24.279296, 50, 
327.577323, 23.985638, 50, 
328.761960, 23.692744, 50, 
329.931990, 23.400610, 50, 
331.087452, 23.109231, 50, 
332.228382, 22.818603, 50, 
333.354818, 22.528720, 50, 
334.466797, 22.239575, 50, 
335.564355, 21.951161, 50, 
336.647528, 21.663471, 50, 
337.716353, 21.376495, 50, 
338.770864, 21.090225, 50, 
339.811097, 20.804650, 50, 
340.837085, 20.519760, 50, 
341.848862, 20.235544, 50, 
342.846461, 19.951989, 50, 
343.829916, 19.669083, 50, 
344.799256, 19.386813, 50, 
345.754515, 19.105166, 50, 
346.695721, 18.824127, 50, 
347.622905, 18.543682, 50, 
348.536096, 18.263816, 50, 
349.435321, 17.984514, 50, 
350.320609, 17.705761, 50, 
351.191986, 17.427540, 50, 
352.049478, 17.149836, 50, 
352.893110, 16.872633, 50, 
353.722906, 16.595914, 50, 
354.538889, 16.319663, 50, 
355.341082, 16.043864, 50, 
356.129507, 15.768501, 50, 
356.904185, 15.493556, 50, 
357.665135, 15.219013, 50, 
358.412378, 14.944858, 50, 
359.145932, 14.671072, 50, 
359.865814, 14.397642, 50, 
360.572042, 14.124550, 50, 
361.264631, 13.851782, 50, 
361.943597, 13.579322, 50, 
362.608955, 13.307156, 50, 
363.260718, 13.035269, 50, 
363.898900, 12.763647, 50, 
364.523514, 12.492276, 50, 
365.134571, 12.221142, 50, 
365.732083, 11.950233, 50, 
366.316060, 11.679536, 50, 
366.886512, 11.409039, 50, 
367.443448, 11.138729, 50, 
367.986878, 10.868595, 50, 
368.516809, 10.598627, 50, 
369.033250, 10.328813, 50, 
369.536207, 10.059144, 50, 
370.025688, 9.789609, 50, 
370.501698, 9.520200, 50, 
370.964243, 9.250907, 50, 
371.413329, 8.981723, 50, 
371.848961, 8.712638, 50, 
372.271143, 8.443646, 50, 
372.679880, 8.174739, 50, 
373.075176, 7.905910, 50, 
373.457033, 7.637153, 50, 
373.825456, 7.368462, 50, 
374.180448, 7.099830, 50, 
374.522011, 6.831254, 50, 
374.850147, 6.562728, 50, 
375.164859, 6.294246, 50, 
375.466150, 6.025805, 50, 
375.754020, 5.757401, 50, 
376.028471, 5.489030, 50, 
376.289506, 5.220689, 50, 
376.537124, 4.952374, 50, 
376.771328, 4.684082, 50, 
376.992119, 4.415811, 50, 
377.199497, 4.147559, 50, 
377.393463, 3.879322, 50, 
377.574018, 3.611100, 50, 
377.741163, 3.342890, 50, 
377.894907, 3.074891, 50, 
378.035554, 2.812931, 50, 
378.163685, 2.562637, 50, 
378.279886, 2.324009, 50, 
378.384738, 2.097045, 50, 
378.478825, 1.881744, 50, 
378.562731, 1.678106, 50, 
378.637037, 1.486129, 50, 
378.702328, 1.305813, 50, 
378.759186, 1.137157, 50, 
378.808194, 0.980162, 50, 
378.849935, 0.834826, 50, 
378.884993, 0.701150, 50, 
378.913949, 0.579133, 50, 
378.937388, 0.468776, 50, 
378.955892, 0.370077, 50, 
378.970044, 0.283037, 50, 
378.980426, 0.207656, 50, 
378.987623, 0.143933, 50, 
378.992217, 0.091869, 50, 
378.994790, 0.051464, 50, 
378.995926, 0.022718, 50, 
378.996207, 0.005629, 50, 
378.996207, 0.000000, 50, 
