Position, Velocity, Delta Time, 
0.000303, 0.012106, 50, 
0.000823, 0.010416, 50, 
0.003547, 0.054478, 50, 
0.008390, 0.096851, 50, 
0.015956, 0.151329, 50, 
0.026852, 0.217914, 50, 
0.041682, 0.296605, 50, 
0.061052, 0.387402, 50, 
0.085568, 0.490306, 50, 
0.115833, 0.605316, 50, 
0.152455, 0.732432, 50, 
0.196038, 0.871655, 50, 
0.247187, 1.022984, 50, 
0.306508, 1.186419, 50, 
0.374606, 1.361961, 50, 
0.452086, 1.549608, 50, 
0.539555, 1.749363, 50, 
0.637313, 1.955170, 50, 
0.745362, 2.160977, 50, 
0.863701, 2.366785, 50, 
0.992331, 2.572592, 50, 
1.131251, 2.778400, 50, 
1.280461, 2.984207, 50, 
1.439962, 3.190014, 50, 
1.609753, 3.395822, 50, 
1.789834, 3.601629, 50, 
1.980206, 3.807436, 50, 
2.180868, 4.013244, 50, 
2.391821, 4.219051, 50, 
2.613064, 4.424858, 50, 
2.844597, 4.630666, 50, 
3.086421, 4.836473, 50, 
3.338535, 5.042281, 50, 
3.600939, 5.248088, 50, 
3.873634, 5.453895, 50, 
4.156619, 5.659703, 50, 
4.449895, 5.865510, 50, 
4.753460, 6.071317, 50, 
5.067317, 6.277125, 50, 
5.391463, 6.482932, 50, 
5.725900, 6.688740, 50, 
6.070628, 6.894547, 50, 
6.425645, 7.100354, 50, 
6.790953, 7.306162, 50, 
7.166552, 7.511969, 50, 
7.552441, 7.717776, 50, 
7.948620, 7.923584, 50, 
8.355089, 8.129391, 50, 
8.771849, 8.335199, 50, 
9.198900, 8.541006, 50, 
9.636240, 8.746813, 50, 
10.083871, 8.952621, 50, 
10.541793, 9.158428, 50, 
11.010005, 9.364235, 50, 
11.488507, 9.570043, 50, 
11.977299, 9.775850, 50, 
12.476382, 9.981657, 50, 
12.985755, 10.187465, 50, 
13.505419, 10.393272, 50, 
14.035373, 10.599080, 50, 
14.575617, 10.804887, 50, 
15.126152, 11.010694, 50, 
15.686977, 11.216502, 50, 
16.258092, 11.422309, 50, 
16.839498, 11.628116, 50, 
17.431194, 11.833924, 50, 
18.033181, 12.039731, 50, 
18.645458, 12.245539, 50, 
19.268025, 12.451346, 50, 
19.900883, 12.657153, 50, 
20.544031, 12.862961, 50, 
21.197469, 13.068768, 50, 
21.861198, 13.274575, 50, 
22.535217, 13.480383, 50, 
23.219527, 13.686190, 50, 
23.914127, 13.891998, 50, 
24.619017, 14.097805, 50, 
25.334198, 14.303612, 50, 
26.059668, 14.509420, 50, 
26.795430, 14.715227, 50, 
27.541482, 14.921034, 50, 
28.297824, 15.126842, 50, 
29.064456, 15.332649, 50, 
29.841379, 15.538457, 50, 
30.628592, 15.744264, 50, 
31.426096, 15.950071, 50, 
32.233890, 16.155879, 50, 
33.051974, 16.361686, 50, 
33.880349, 16.567493, 50, 
34.719014, 16.773301, 50, 
35.567969, 16.979108, 50, 
36.427215, 17.184915, 50, 
37.296751, 17.390723, 50, 
38.176577, 17.596530, 50, 
39.066694, 17.802338, 50, 
39.967102, 18.008145, 50, 
40.877799, 18.213952, 50, 
41.798787, 18.419760, 50, 
42.730066, 18.625567, 50, 
43.671634, 18.831374, 50, 
44.623493, 19.037182, 50, 
45.585643, 19.242989, 50, 
46.558083, 19.448797, 50, 
47.540813, 19.654604, 50, 
48.533833, 19.860411, 50, 
49.537144, 20.066219, 50, 
50.550746, 20.272026, 50, 
51.574637, 20.477833, 50, 
52.608819, 20.683641, 50, 
53.653292, 20.889448, 50, 
54.708055, 21.095256, 50, 
55.773108, 21.301063, 50, 
56.848451, 21.506870, 50, 
57.934085, 21.712678, 50, 
59.030009, 21.918485, 50, 
60.136224, 22.124292, 50, 
61.252729, 22.330100, 50, 
62.379524, 22.535907, 50, 
63.516610, 22.741714, 50, 
64.663986, 22.947522, 50, 
65.821653, 23.153329, 50, 
66.989609, 23.359137, 50, 
68.167857, 23.564944, 50, 
69.356394, 23.770751, 50, 
70.555222, 23.976559, 50, 
71.764340, 24.182366, 50, 
72.983749, 24.388173, 50, 
74.213448, 24.593981, 50, 
75.453438, 24.799788, 50, 
76.703717, 25.005596, 50, 
77.964287, 25.211403, 50, 
79.235148, 25.417210, 50, 
80.516299, 25.623018, 50, 
81.807740, 25.828825, 50, 
83.109472, 26.034632, 50, 
84.421494, 26.240440, 50, 
85.743806, 26.446247, 50, 
87.076409, 26.652055, 50, 
88.419302, 26.857862, 50, 
89.772485, 27.063669, 50, 
91.135959, 27.269477, 50, 
92.509723, 27.475284, 50, 
93.893778, 27.681091, 50, 
95.288123, 27.886899, 50, 
96.692456, 28.086653, 50, 
98.106171, 28.274301, 50, 
99.579054, 29.457666, 50, 
101.273268, 33.884293, 50, 
102.973959, 34.013802, 50, 
104.679376, 34.108358, 50, 
106.387784, 34.168159, 50, 
108.097476, 34.193840, 50, 
109.806798, 34.186441, 50, 
111.514166, 34.147356, 50, 
113.218079, 34.078263, 50, 
114.917132, 33.981048, 50, 
116.610018, 33.857731, 50, 
118.295538, 33.710386, 50, 
119.972591, 33.541070, 50, 
121.640180, 33.351771, 50, 
123.297217, 33.140744, 50, 
124.942707, 32.909797, 50, 
126.575913, 32.664130, 50, 
128.196168, 32.405097, 50, 
129.802861, 32.133860, 50, 
131.395431, 31.851398, 50, 
132.973357, 31.558520, 50, 
134.536151, 31.255878, 50, 
136.083350, 30.943983, 50, 
137.614511, 30.623228, 50, 
139.129206, 30.293900, 50, 
140.627017, 29.956205, 50, 
142.107531, 29.610280, 50, 
143.570341, 29.256210, 50, 
145.015043, 28.894045, 50, 
146.441234, 28.523809, 50, 
147.848510, 28.145512, 50, 
149.236629, 27.762394, 50, 
150.605648, 27.380378, 50, 
151.955749, 27.002027, 50, 
153.287104, 26.627087, 50, 
154.599871, 26.255335, 50, 
155.894199, 25.886578, 50, 
157.170233, 25.520662, 50, 
158.428106, 25.157466, 50, 
159.667952, 24.796915, 50, 
160.889900, 24.438973, 50, 
162.094083, 24.083649, 50, 
163.280633, 23.730999, 50, 
164.449689, 23.381125, 50, 
165.601398, 23.034175, 50, 
166.735915, 22.690346, 50, 
167.853409, 22.349879, 50, 
168.954062, 22.013059, 50, 
170.038073, 21.680213, 50, 
171.105658, 21.351704, 50, 
172.157054, 21.027928, 50, 
173.192520, 20.709308, 50, 
174.212334, 20.396283, 50, 
175.216799, 20.089303, 50, 
176.206240, 19.788820, 50, 
177.181004, 19.495274, 50, 
178.141458, 19.209086, 50, 
179.087990, 18.930645, 50, 
180.021005, 18.660298, 50, 
180.940922, 18.398340, 50, 
181.848172, 18.145003, 50, 
182.743195, 17.900451, 50, 
183.626433, 17.664773, 50, 
184.498332, 17.437978, 50, 
185.359332, 17.219995, 50, 
186.209866, 17.010671, 50, 
187.050354, 16.809775, 50, 
187.881205, 16.617006, 50, 
188.706343, 16.502763, 50, 
189.523280, 16.338738, 50, 
190.322231, 15.979033, 50, 
191.102868, 15.612735, 50, 
191.864867, 15.239973, 50, 
192.607917, 14.860997, 50, 
193.331727, 14.476204, 50, 
194.036035, 14.086159, 50, 
194.720616, 13.691629, 50, 
195.385297, 13.293606, 50, 
196.029963, 12.893332, 50, 
196.654579, 12.492324, 50, 
197.259199, 12.092383, 50, 
197.843978, 11.695596, 50, 
198.409195, 11.304328, 50, 
198.955254, 10.921184, 50, 
199.482702, 10.548965, 50, 
199.992232, 10.190587, 50, 
200.484681, 9.848987, 50, 
200.961031, 9.527008, 50, 
201.422395, 9.227270, 50, 
201.869997, 8.952038, 50, 
202.305152, 8.703102, 50, 
202.729235, 8.481668, 50, 
203.143650, 8.288287, 50, 
203.549790, 8.122818, 50, 
203.949012, 7.984436, 50, 
204.342596, 7.871683, 50, 
204.731724, 7.782549, 50, 
205.117453, 7.714589, 50, 
205.500706, 7.665048, 50, 
205.882256, 7.630996, 50, 
206.262728, 7.609454, 50, 
206.642603, 7.597502, 50, 
207.022222, 7.592371, 50, 
207.401797, 7.591509, 50, 
207.781429, 7.592629, 50, 
208.161115, 7.593732, 50, 
208.540771, 7.593110, 50, 
208.920238, 7.589346, 50, 
209.299303, 7.581294, 50, 
209.677706, 7.568053, 50, 
210.055153, 7.548945, 50, 
210.431327, 7.523485, 50, 
210.805895, 7.491349, 50, 
211.178512, 7.452356, 50, 
211.548834, 7.406435, 50, 
211.916514, 7.353607, 50, 
212.281213, 7.293966, 50, 
212.642596, 7.227664, 50, 
213.000341, 7.154893, 50, 
213.354134, 7.075877, 50, 
213.703677, 6.990860, 50, 
214.048682, 6.900101, 50, 
214.388876, 6.803866, 50, 
214.723997, 6.702422, 50, 
215.053799, 6.596037, 50, 
215.378047, 6.484972, 50, 
215.696522, 6.369483, 50, 
216.009012, 6.249818, 50, 
216.315323, 6.126214, 50, 
216.615268, 5.998901, 50, 
216.908673, 5.868095, 50, 
217.195373, 5.734006, 50, 
217.475215, 5.596830, 50, 
217.748052, 5.456753, 50, 
218.013750, 5.313954, 50, 
218.272180, 5.168599, 50, 
218.523222, 5.020846, 50, 
218.766765, 4.870845, 50, 
219.002701, 4.718735, 50, 
219.230934, 4.564651, 50, 
219.451370, 4.408717, 50, 
219.663922, 4.251052, 50, 
219.868511, 4.091767, 50, 
220.065059, 3.930969, 50, 
220.253497, 3.768756, 50, 
220.433758, 3.605224, 50, 
220.605781, 3.440462, 50, 
220.769509, 3.274554, 50, 
220.924888, 3.107583, 50, 
221.071869, 2.939623, 50, 
221.210407, 2.770749, 50, 
221.340458, 2.601029, 50, 
221.461985, 2.430531, 50, 
221.574951, 2.259318, 50, 
221.679323, 2.087452, 50, 
221.775073, 1.914991, 50, 
221.862172, 1.741992, 50, 
221.940598, 1.568509, 50, 
222.010466, 1.397356, 50, 
222.072153, 1.233744, 50, 
222.126159, 1.080136, 50, 
222.172989, 0.936594, 50, 
222.213148, 0.803173, 50, 
222.247144, 0.679918, 50, 
222.275487, 0.566869, 50, 
222.298690, 0.464057, 50, 
222.317265, 0.371509, 50, 
222.331728, 0.289248, 50, 
222.342592, 0.217288, 50, 
222.350374, 0.155645, 50, 
222.355591, 0.104326, 50, 
222.358758, 0.063339, 50, 
222.360392, 0.032688, 50, 
222.361011, 0.012375, 50, 
222.361131, 0.002402, 50, 
222.361131, 0.000000, 50, 
