Position, Velocity, Delta Time, 
0.000302, 0.012075, 50, 
0.000579, 0.005537, 50, 
0.003296, 0.054337, 50, 
0.008125, 0.096599, 50, 
0.015672, 0.150935, 50, 
0.026540, 0.217347, 50, 
0.041331, 0.295833, 50, 
0.060651, 0.386394, 50, 
0.085103, 0.489030, 50, 
0.115290, 0.603741, 50, 
0.151816, 0.730527, 50, 
0.195285, 0.869388, 50, 
0.246301, 1.020323, 50, 
0.305468, 1.183333, 50, 
0.373389, 1.358418, 50, 
0.450668, 1.545578, 50, 
0.537909, 1.744812, 50, 
0.635715, 1.956122, 50, 
0.744690, 2.179506, 50, 
0.865136, 2.408928, 50, 
0.997054, 2.638350, 50, 
1.140442, 2.867771, 50, 
1.295302, 3.097193, 50, 
1.461633, 3.326615, 50, 
1.639435, 3.556036, 50, 
1.828707, 3.785458, 50, 
2.029451, 4.014880, 50, 
2.241667, 4.244302, 50, 
2.465353, 4.473723, 50, 
2.700510, 4.703145, 50, 
2.947138, 4.932567, 50, 
3.205238, 5.161988, 50, 
3.474808, 5.391410, 50, 
3.755850, 5.620832, 50, 
4.048362, 5.850253, 50, 
4.352346, 6.079675, 50, 
4.667801, 6.309097, 50, 
4.994727, 6.538519, 50, 
5.333124, 6.767940, 50, 
5.682992, 6.997362, 50, 
6.044331, 7.226784, 50, 
6.417142, 7.456205, 50, 
6.801423, 7.685627, 50, 
7.197175, 7.915049, 50, 
7.604399, 8.144470, 50, 
8.023093, 8.373892, 50, 
8.453259, 8.603314, 50, 
8.894896, 8.832736, 50, 
9.348004, 9.062157, 50, 
9.812583, 9.291579, 50, 
10.288633, 9.521001, 50, 
10.776154, 9.750422, 50, 
11.275146, 9.979844, 50, 
11.785609, 10.209266, 50, 
12.307544, 10.438687, 50, 
12.840949, 10.668109, 50, 
13.385826, 10.897531, 50, 
13.942173, 11.126953, 50, 
14.509992, 11.356374, 50, 
15.089282, 11.585796, 50, 
15.680043, 11.815218, 50, 
16.282275, 12.044639, 50, 
16.895978, 12.274061, 50, 
17.521152, 12.503483, 50, 
18.157797, 12.732905, 50, 
18.805913, 12.962326, 50, 
19.465501, 13.191748, 50, 
20.136559, 13.421170, 50, 
20.819089, 13.650591, 50, 
21.513090, 13.880013, 50, 
22.218561, 14.109435, 50, 
22.935504, 14.338856, 50, 
23.663918, 14.568278, 50, 
24.403803, 14.797700, 50, 
25.155159, 15.027122, 50, 
25.917986, 15.256543, 50, 
26.692284, 15.485965, 50, 
27.478054, 15.715387, 50, 
28.275294, 15.944808, 50, 
29.084006, 16.174230, 50, 
29.904188, 16.403652, 50, 
30.735842, 16.633073, 50, 
31.578967, 16.862495, 50, 
32.433563, 17.091917, 50, 
33.299630, 17.321339, 50, 
34.177168, 17.550760, 50, 
35.066177, 17.780182, 50, 
35.966657, 18.009604, 50, 
36.878608, 18.239025, 50, 
37.802030, 18.468447, 50, 
38.736924, 18.697869, 50, 
39.683288, 18.927290, 50, 
40.641124, 19.156712, 50, 
41.610431, 19.386134, 50, 
42.591209, 19.615556, 50, 
43.583457, 19.844977, 50, 
44.587177, 20.074399, 50, 
45.602368, 20.303821, 50, 
46.629030, 20.533242, 50, 
47.667164, 20.762664, 50, 
48.716768, 20.992086, 50, 
49.777843, 21.221508, 50, 
50.850390, 21.450929, 50, 
51.934407, 21.680351, 50, 
53.029896, 21.909773, 50, 
54.136856, 22.139194, 50, 
55.255287, 22.368616, 50, 
56.385188, 22.598038, 50, 
57.526561, 22.827459, 50, 
58.679405, 23.056881, 50, 
59.843721, 23.286303, 50, 
61.019507, 23.515725, 50, 
62.206764, 23.745146, 50, 
63.405493, 23.974568, 50, 
64.615692, 24.203990, 50, 
65.837363, 24.433411, 50, 
67.070504, 24.662833, 50, 
68.315117, 24.892255, 50, 
69.571201, 25.121676, 50, 
70.838756, 25.351098, 50, 
72.117782, 25.580520, 50, 
73.408279, 25.809942, 50, 
74.710247, 26.039363, 50, 
76.023686, 26.268785, 50, 
77.348596, 26.498207, 50, 
78.684978, 26.727628, 50, 
80.032830, 26.957050, 50, 
81.392154, 27.186472, 50, 
82.762949, 27.415893, 50, 
84.145214, 27.645315, 50, 
85.538951, 27.874737, 50, 
86.944159, 28.104159, 50, 
88.360838, 28.333580, 50, 
89.788988, 28.563002, 50, 
91.228610, 28.792424, 50, 
92.679702, 29.021845, 50, 
94.142265, 29.251267, 50, 
95.616300, 29.480689, 50, 
97.101805, 29.710111, 50, 
98.598782, 29.939532, 50, 
100.107229, 30.168954, 50, 
101.627148, 30.398376, 50, 
103.158538, 30.627797, 50, 
104.701399, 30.857219, 50, 
106.255429, 31.080603, 50, 
107.820025, 31.291913, 50, 
109.394582, 31.491147, 50, 
110.978498, 31.678307, 50, 
112.571167, 31.853392, 50, 
114.171987, 32.016402, 50, 
115.780354, 32.167338, 50, 
117.395664, 32.306198, 50, 
119.017313, 32.432984, 50, 
120.644698, 32.547695, 50, 
122.277215, 32.650331, 50, 
123.791971, 30.295131, 50, 
125.133702, 26.834614, 50, 
126.480772, 26.941408, 50, 
127.834115, 27.066855, 50, 
129.194625, 27.210207, 50, 
130.563126, 27.370018, 50, 
131.940338, 27.544227, 50, 
133.326687, 27.726997, 50, 
134.722454, 27.915328, 50, 
136.127921, 28.109338, 50, 
137.543213, 28.305847, 50, 
138.968300, 28.501740, 50, 
140.403004, 28.694075, 50, 
141.847011, 28.880147, 50, 
143.299889, 29.057547, 50, 
144.761097, 29.224178, 50, 
146.230011, 29.378265, 50, 
147.705928, 29.518342, 50, 
149.188089, 29.643233, 50, 
150.675691, 29.752024, 50, 
152.167892, 29.844029, 50, 
153.663830, 29.918756, 50, 
155.162624, 29.975877, 50, 
156.663384, 30.015196, 50, 
158.165214, 30.036618, 50, 
159.667221, 30.040126, 50, 
161.168700, 30.029585, 50, 
162.669257, 30.011136, 50, 
164.168620, 29.987253, 50, 
165.666536, 29.958339, 50, 
167.162776, 29.924781, 50, 
168.657123, 29.886946, 50, 
170.149381, 29.845166, 50, 
171.639368, 29.799742, 50, 
173.126915, 29.750931, 50, 
174.611862, 29.698946, 50, 
176.094060, 29.643952, 50, 
177.573363, 29.586060, 50, 
179.049629, 29.525327, 50, 
180.522716, 29.461751, 50, 
181.992480, 29.395272, 50, 
183.458768, 29.325766, 50, 
184.921421, 29.253049, 50, 
186.380265, 29.176874, 50, 
187.835111, 29.096933, 50, 
189.285754, 29.012857, 50, 
190.731965, 28.924227, 50, 
192.173494, 28.830570, 50, 
193.610062, 28.731372, 50, 
195.041367, 28.626087, 50, 
196.467074, 28.514144, 50, 
197.886822, 28.394963, 50, 
199.300220, 28.267965, 50, 
200.706850, 28.132593, 50, 
202.106266, 27.988320, 50, 
203.498000, 27.834669, 50, 
204.881561, 27.671228, 50, 
206.256444, 27.497663, 50, 
207.622130, 27.313727, 50, 
208.978094, 27.119276, 50, 
210.323808, 26.914270, 50, 
211.658747, 26.698778, 50, 
212.982396, 26.472978, 50, 
214.294253, 26.237154, 50, 
215.593838, 25.991687, 50, 
216.880690, 25.737048, 50, 
218.157311, 25.532429, 50, 
219.433898, 25.531729, 50, 
220.710467, 25.531383, 50, 
221.987659, 25.543849, 50, 
223.266106, 25.568930, 50, 
224.546410, 25.606086, 50, 
225.829127, 25.654342, 50, 
227.114737, 25.712191, 50, 
228.403611, 25.777485, 50, 
229.695978, 25.847338, 50, 
230.991880, 25.918043, 50, 
232.291131, 25.985026, 50, 
233.593274, 26.042854, 50, 
234.897540, 26.085320, 50, 
236.202821, 26.105625, 50, 
237.507655, 26.096668, 50, 
238.810226, 26.051433, 50, 
240.108399, 25.963454, 50, 
241.399765, 25.827313, 50, 
242.681720, 25.639103, 50, 
243.951559, 25.396786, 50, 
245.206579, 25.100398, 50, 
246.444182, 24.752049, 50, 
247.661968, 24.355733, 50, 
248.857817, 23.916969, 50, 
250.029934, 23.442335, 50, 
251.176882, 22.938974, 50, 
252.297588, 22.414115, 50, 
253.391322, 21.874679, 50, 
254.457671, 21.326982, 50, 
255.496498, 20.776548, 50, 
256.507899, 20.228021, 50, 
257.492157, 19.685150, 50, 
258.449699, 19.150845, 50, 
259.381062, 18.627254, 50, 
260.286855, 18.115870, 50, 
261.167737, 17.617636, 50, 
262.024390, 17.133051, 50, 
262.857503, 16.662265, 50, 
263.667761, 16.205159, 50, 
264.455832, 15.761417, 50, 
265.222361, 15.330584, 50, 
265.967966, 14.912107, 50, 
266.693235, 14.505377, 50, 
267.398723, 14.109752, 50, 
268.084952, 13.724579, 50, 
268.752412, 13.349212, 50, 
269.401563, 12.983019, 50, 
270.032833, 12.625391, 50, 
270.646620, 12.275747, 50, 
271.243297, 11.933538, 50, 
271.823209, 11.598245, 50, 
272.386679, 11.269384, 50, 
272.934004, 10.946501, 50, 
273.465462, 10.629174, 50, 
273.981313, 10.317012, 50, 
274.481795, 10.009650, 50, 
274.967133, 9.706751, 50, 
275.437533, 9.408002, 50, 
275.893189, 9.113115, 50, 
276.334280, 8.821820, 50, 
276.760973, 8.533871, 50, 
277.173425, 8.249036, 50, 
277.571780, 7.967103, 50, 
277.956174, 7.687874, 50, 
278.326732, 7.411165, 50, 
278.683573, 7.136806, 50, 
279.026805, 6.864638, 50, 
279.356530, 6.594513, 50, 
279.672845, 6.326293, 50, 
279.975837, 6.059849, 50, 
280.265590, 5.795060, 50, 
280.542181, 5.531814, 50, 
280.805681, 5.270004, 50, 
281.056158, 5.009530, 50, 
281.293673, 4.750299, 50, 
281.518284, 4.492220, 50, 
281.730044, 4.235210, 50, 
281.929004, 3.979189, 50, 
282.115208, 3.724081, 50, 
282.288698, 3.469813, 50, 
282.449514, 3.216316, 50, 
282.597690, 2.963524, 50, 
282.733259, 2.711373, 50, 
282.856249, 2.459801, 50, 
282.966899, 2.212990, 50, 
283.065770, 1.977434, 50, 
283.153539, 1.755376, 50, 
283.230876, 1.546747, 50, 
283.298451, 1.351484, 50, 
283.356927, 1.169536, 50, 
283.406970, 1.000855, 50, 
283.449240, 0.845403, 50, 
283.484397, 0.703146, 50, 
283.513100, 0.574057, 50, 
283.536006, 0.458114, 50, 
283.553771, 0.355298, 50, 
283.567051, 0.265595, 50, 
283.576500, 0.188993, 50, 
283.582775, 0.125486, 50, 
283.586528, 0.075067, 50, 
283.588415, 0.037733, 50, 
283.589089, 0.013482, 50, 
283.589204, 0.002314, 50, 
283.589204, 0.000000, 50, 
